t;u;w;q [graus/s];theta [graus]
0;70;0;0;0
0.1;69.9997;0.178539;2.53535;0.141503
0.2;69.9977;0.509255;3.57971;0.455912
0.3;69.9926;0.843785;3.81021;0.829952
0.4;69.9838;1.11936;3.65786;1.20535
0.5;69.9708;1.32042;3.3724;1.55744
0.6;69.9535;1.454;3.08242;1.88005
0.7;69.9319;1.53532;2.84245;2.1759
0.8;69.9059;1.58026;2.66613;2.45089
0.9;69.8758;1.6021;2.5475;2.7112
1;69.8415;1.61062;2.47349;2.96198
1.1;69.8031;1.61237;2.43041;3.20699
1.2;69.7607;1.61133;2.4068;3.44874
1.3;69.7142;1.60973;2.39422;3.68873
1.4;69.6638;1.60861;2.38701;3.92777
1.5;69.6093;1.60837;2.38172;4.1662
1.6;69.551;1.60904;2.37643;4.40411
1.7;69.4887;1.61049;2.37022;4.64146
1.8;69.4226;1.61257;2.36278;4.87812
1.9;69.3526;1.61512;2.35407;5.11398
2;69.2788;1.61802;2.34419;5.34891
2.1;69.2012;1.62119;2.33329;5.58279
2.2;69.1198;1.62458;2.32151;5.81555
2.3;69.0347;1.62814;2.30895;6.04708
2.4;68.9459;1.63187;2.29569;6.27733
2.5;68.8534;1.63575;2.28179;6.50621
2.6;68.7573;1.63977;2.26726;6.73368
2.7;68.6576;1.64395;2.25214;6.95966
2.8;68.5543;1.64828;2.23644;7.1841
2.9;68.4475;1.65275;2.22015;7.40695
3;68.3373;1.65738;2.2033;7.62813
3.1;68.2235;1.66215;2.18588;7.8476
3.2;68.1064;1.66707;2.16789;8.06531
3.3;67.9859;1.67214;2.14935;8.28118
3.4;67.862;1.67735;2.13026;8.49518
3.5;67.7349;1.6827;2.11062;8.70723
3.6;67.6045;1.68819;2.09045;8.9173
3.7;67.471;1.69383;2.06974;9.12533
3.8;67.3343;1.6996;2.0485;9.33125
3.9;67.1944;1.7055;2.02675;9.53503
4;67.0515;1.71154;2.00448;9.73661
4.1;66.9056;1.71771;1.98172;9.93593
4.2;66.7567;1.72401;1.95845;10.133
4.3;66.605;1.73044;1.9347;10.3276
4.4;66.4503;1.73699;1.91046;10.5199
4.5;66.2928;1.74367;1.88575;10.7097
4.6;66.1325;1.75046;1.86058;10.8971
4.7;65.9696;1.75738;1.83495;11.0819
4.8;65.8039;1.76441;1.80887;11.2641
4.9;65.6356;1.77156;1.78235;11.4436
5;65.4648;1.77881;1.7554;11.6205
5.1;65.2915;1.78618;1.72802;11.7947
5.2;65.1157;1.79366;1.70023;11.9662
5.3;64.9375;1.80124;1.67203;12.1348
5.4;64.7569;1.80892;1.64344;12.3006
5.5;64.5741;1.8167;1.61445;12.4635
5.6;64.389;1.82458;1.58509;12.6235
5.7;64.2018;1.83256;1.55535;12.7805
5.8;64.0124;1.84063;1.52525;12.9346
5.9;63.821;1.84879;1.49481;13.0856
6;63.6275;1.85704;1.46401;13.2336
6.1;63.4321;1.86538;1.43289;13.3784
6.2;63.2349;1.8738;1.40143;13.5202
6.3;63.0358;1.8823;1.36967;13.6587
6.4;62.8349;1.89087;1.3376;13.7941
6.5;62.6323;1.89953;1.30523;13.9263
6.6;62.4281;1.90825;1.27257;14.0552
6.7;62.2222;1.91705;1.23964;14.1808
6.8;62.0149;1.92591;1.20645;14.3031
6.9;61.8061;1.93484;1.17299;14.4221
7;61.5958;1.94383;1.13929;14.5378
7.1;61.3843;1.95289;1.10535;14.65
7.2;61.1714;1.962;1.07119;14.7589
7.3;60.9573;1.97116;1.03681;14.8643
7.4;60.7421;1.98038;1.00222;14.9662
7.5;60.5258;1.98964;0.967432;15.0647
7.6;60.3084;1.99895;0.932459;15.1598
7.7;60.0901;2.00831;0.897309;15.2513
7.8;59.8708;2.01771;0.861993;15.3393
7.9;59.6507;2.02714;0.826521;15.4237
8;59.4299;2.03661;0.790903;15.5046
8.1;59.2083;2.04612;0.755148;15.5819
8.2;58.9861;2.05565;0.719268;15.6557
8.3;58.7632;2.06521;0.683273;15.7258
8.4;58.5399;2.0748;0.647173;15.7923
8.5;58.316;2.08441;0.610977;15.8553
8.6;58.0918;2.09404;0.574697;15.9146
8.7;57.8672;2.10369;0.538343;15.9702
8.8;57.6424;2.11335;0.501924;16.0223
8.9;57.4173;2.12302;0.465452;16.0707
9;57.1921;2.1327;0.428936;16.1154
9.1;56.9668;2.14238;0.392387;16.1565
9.2;56.7415;2.15207;0.355814;16.1939
9.3;56.5162;2.16176;0.319229;16.2277
9.4;56.291;2.17145;0.282641;16.2578
9.5;56.066;2.18113;0.24606;16.2842
9.6;55.8412;2.19081;0.209497;16.307
9.7;55.6167;2.20047;0.172961;16.3262
9.8;55.3925;2.21013;0.136463;16.3417
9.9;55.1687;2.21976;0.100013;16.3535
10;54.9454;2.22938;0.0636207;16.3617
10.1;54.7227;2.23898;0.027296;16.3663
10.2;54.5005;2.24855;-0.00895119;16.3672
10.3;54.279;2.2581;-0.0451109;16.3645
10.4;54.0582;2.26762;-0.0811732;16.3582
10.5;53.8382;2.27711;-0.117129;16.3483
10.6;53.619;2.28657;-0.152967;16.3348
10.7;53.4007;2.29599;-0.188679;16.3178
10.8;53.1833;2.30537;-0.224255;16.2971
10.9;52.967;2.3147;-0.259685;16.273
11;52.7517;2.324;-0.29496;16.2452
11.1;52.5375;2.33325;-0.330071;16.214
11.2;52.3245;2.34245;-0.365008;16.1793
11.3;52.1127;2.3516;-0.399761;16.1411
11.4;51.9023;2.36069;-0.434322;16.0994
11.5;51.6932;2.36973;-0.468682;16.0542
11.6;51.4854;2.37872;-0.502831;16.0057
11.7;51.2792;2.38764;-0.53676;15.9537
11.8;51.0744;2.39649;-0.570461;15.8984
11.9;50.8712;2.40529;-0.603925;15.8397
12;50.6696;2.41401;-0.637142;15.7776
12.1;50.4697;2.42267;-0.670105;15.7123
12.2;50.2715;2.43125;-0.702805;15.6436
12.3;50.0751;2.43976;-0.735233;15.5717
12.4;49.8805;2.44819;-0.767381;15.4966
12.5;49.6877;2.45654;-0.799241;15.4183
12.6;49.4969;2.46482;-0.830804;15.3368
12.7;49.308;2.47301;-0.862063;15.2522
12.8;49.1212;2.48111;-0.89301;15.1645
12.9;48.9364;2.48913;-0.923636;15.0736
13;48.7537;2.49706;-0.953934;14.9798
13.1;48.5732;2.5049;-0.983896;14.8829
13.2;48.3949;2.51264;-1.01352;14.783
13.3;48.2188;2.52029;-1.04278;14.6802
13.4;48.045;2.52784;-1.07169;14.5745
13.5;47.8735;2.5353;-1.10024;14.4659
13.6;47.7044;2.54265;-1.12841;14.3545
13.7;47.5378;2.5499;-1.15621;14.2403
13.8;47.3735;2.55705;-1.18362;14.1233
13.9;47.2118;2.56409;-1.21063;14.0036
14;47.0526;2.57103;-1.23725;13.8812
14.1;46.896;2.57785;-1.26346;13.7562
14.2;46.7419;2.58457;-1.28926;13.6286
14.3;46.5906;2.59117;-1.31464;13.4984
14.4;46.4419;2.59765;-1.33959;13.3657
14.5;46.2959;2.60403;-1.36412;13.2305
14.6;46.1527;2.61028;-1.38821;13.0929
14.7;46.0122;2.61642;-1.41186;12.9529
14.8;45.8746;2.62243;-1.43506;12.8106
14.9;45.7398;2.62833;-1.45781;12.6659
15;45.6079;2.6341;-1.4801;12.519
15.1;45.4789;2.63975;-1.50193;12.3699
15.2;45.3528;2.64527;-1.52329;12.2187
15.3;45.2297;2.65067;-1.54418;12.0653
15.4;45.1096;2.65594;-1.56459;11.9099
15.5;44.9925;2.66108;-1.58452;11.7524
15.6;44.8784;2.66609;-1.60396;11.593
15.7;44.7674;2.67097;-1.62291;11.4317
15.8;44.6596;2.67571;-1.64137;11.2685
15.9;44.5548;2.68033;-1.65933;11.1034
16;44.4531;2.68481;-1.67678;10.9366
16.1;44.3546;2.68915;-1.69373;10.7681
16.2;44.2593;2.69336;-1.71017;10.5979
16.3;44.1672;2.69743;-1.7261;10.4261
16.4;44.0783;2.70137;-1.74151;10.2527
16.5;43.9926;2.70516;-1.7564;10.0778
16.6;43.9102;2.70882;-1.77077;9.90149
16.7;43.8311;2.71234;-1.78462;9.72373
16.8;43.7552;2.71571;-1.79793;9.5446
16.9;43.6826;2.71895;-1.81072;9.36417
17;43.6133;2.72204;-1.82298;9.18249
17.1;43.5473;2.72499;-1.8347;8.9996
17.2;43.4847;2.7278;-1.84588;8.81558
17.3;43.4253;2.73047;-1.85653;8.63046
17.4;43.3694;2.73299;-1.86663;8.4443
17.5;43.3167;2.73537;-1.87619;8.25716
17.6;43.2675;2.73761;-1.88522;8.06909
17.7;43.2216;2.7397;-1.89369;7.88014
17.8;43.179;2.74164;-1.90162;7.69038
17.9;43.1399;2.74344;-1.90901;7.49984
18;43.1041;2.7451;-1.91585;7.3086
18.1;43.0716;2.74661;-1.92214;7.1167
18.2;43.0426;2.74798;-1.92788;6.9242
18.3;43.0169;2.7492;-1.93308;6.73115
18.4;42.9946;2.75027;-1.93772;6.5376
18.5;42.9757;2.7512;-1.94182;6.34362
18.6;42.9602;2.75199;-1.94537;6.14926
18.7;42.948;2.75263;-1.94837;5.95457
18.8;42.9392;2.75312;-1.95083;5.75961
18.9;42.9338;2.75347;-1.95273;5.56443
19;42.9317;2.75368;-1.95409;5.36908
19.1;42.9329;2.75374;-1.95491;5.17363
19.2;42.9375;2.75366;-1.95518;4.97812
19.3;42.9454;2.75343;-1.95491;4.78261
19.4;42.9567;2.75306;-1.95409;4.58716
19.5;42.9712;2.75255;-1.95274;4.39181
19.6;42.9891;2.7519;-1.95085;4.19662
19.7;43.0102;2.75111;-1.94842;4.00165
19.8;43.0346;2.75017;-1.94546;3.80695
19.9;43.0622;2.74909;-1.94196;3.61258
20;43.0931;2.74788;-1.93793;3.41858
20.1;43.1272;2.74652;-1.93338;3.22501
20.2;43.1645;2.74503;-1.92829;3.03191
20.3;43.205;2.7434;-1.92269;2.83936
20.4;43.2487;2.74163;-1.91657;2.64739
20.5;43.2955;2.73972;-1.90992;2.45606
20.6;43.3455;2.73768;-1.90277;2.26541
20.7;43.3985;2.73551;-1.8951;2.07551
20.8;43.4547;2.7332;-1.88693;1.8864
20.9;43.5139;2.73076;-1.87825;1.69813
21;43.5761;2.72819;-1.86907;1.51076
21.1;43.6414;2.72549;-1.85939;1.32433
21.2;43.7096;2.72266;-1.84922;1.13889
21.3;43.7808;2.7197;-1.83856;0.95449
21.4;43.855;2.71661;-1.82742;0.771181
21.5;43.9321;2.7134;-1.81579;0.589011
21.6;44.012;2.71006;-1.80369;0.408027
21.7;44.0948;2.70659;-1.79112;0.228276
21.8;44.1804;2.70301;-1.77808;0.0498061
21.9;44.2689;2.6993;-1.76457;-0.127337
22;44.36;2.69548;-1.75061;-0.303107
22.1;44.454;2.69153;-1.7362;-0.477458
22.2;44.5506;2.68747;-1.72133;-0.650346
22.3;44.6498;2.6833;-1.70603;-0.821726
22.4;44.7517;2.679;-1.69029;-0.991553
22.5;44.8562;2.6746;-1.67411;-1.15978
22.6;44.9633;2.67008;-1.65751;-1.32638
22.7;45.0729;2.66546;-1.64049;-1.49129
22.8;45.185;2.66073;-1.62305;-1.65448
22.9;45.2995;2.65589;-1.60521;-1.8159
23;45.4164;2.65094;-1.58696;-1.97553
23.1;45.5358;2.64589;-1.56831;-2.1333
23.2;45.6574;2.64074;-1.54927;-2.28919
23.3;45.7814;2.63549;-1.52985;-2.44316
23.4;45.9076;2.63014;-1.51005;-2.59517
23.5;46.036;2.62469;-1.48987;-2.74518
23.6;46.1666;2.61915;-1.46933;-2.89315
23.7;46.2994;2.61351;-1.44843;-3.03905
23.8;46.4342;2.60779;-1.42717;-3.18285
23.9;46.5711;2.60197;-1.40558;-3.3245
24;46.71;2.59607;-1.38364;-3.46397
24.1;46.8509;2.59008;-1.36137;-3.60124
24.2;46.9937;2.584;-1.33877;-3.73626
24.3;47.1384;2.57785;-1.31585;-3.869
24.4;47.2849;2.57161;-1.29263;-3.99944
24.5;47.4332;2.56529;-1.2691;-4.12754
24.6;47.5832;2.5589;-1.24527;-4.25327
24.7;47.735;2.55243;-1.22115;-4.37661
24.8;47.8884;2.5459;-1.19675;-4.49752
24.9;48.0434;2.53929;-1.17208;-4.61598
25;48.1999;2.53261;-1.14714;-4.73195
25.1;48.358;2.52586;-1.12194;-4.84542
25.2;48.5175;2.51905;-1.09648;-4.95636
25.3;48.6785;2.51218;-1.07079;-5.06473
25.4;48.8408;2.50525;-1.04485;-5.17053
25.5;49.0044;2.49825;-1.01869;-5.27372
25.6;49.1693;2.49121;-0.992303;-5.37429
25.7;49.3355;2.4841;-0.965705;-5.4722
25.8;49.5028;2.47695;-0.938902;-5.56745
25.9;49.6712;2.46974;-0.9119;-5.66
26;49.8407;2.46249;-0.884709;-5.74985
26.1;50.0113;2.45519;-0.857336;-5.83697
26.2;50.1828;2.44785;-0.82979;-5.92134
26.3;50.3552;2.44047;-0.802078;-6.00295
26.4;50.5285;2.43305;-0.774209;-6.08178
26.5;50.7027;2.42559;-0.74619;-6.15781
26.6;50.8776;2.41809;-0.71803;-6.23104
26.7;51.0532;2.41056;-0.689736;-6.30144
26.8;51.2295;2.403;-0.661318;-6.36901
26.9;51.4065;2.39541;-0.632783;-6.43373
27;51.584;2.3878;-0.604139;-6.49559
27.1;51.762;2.38016;-0.575395;-6.55458
27.2;51.9406;2.3725;-0.546558;-6.61069
27.3;52.1195;2.36482;-0.517638;-6.66392
27.4;52.2988;2.35712;-0.488641;-6.71425
27.5;52.4784;2.34941;-0.459577;-6.76167
27.6;52.6583;2.34168;-0.430454;-6.80619
27.7;52.8384;2.33394;-0.40128;-6.84779
27.8;53.0187;2.3262;-0.372063;-6.88648
27.9;53.1991;2.31844;-0.342811;-6.92223
28;53.3796;2.31068;-0.313532;-6.95507
28.1;53.5601;2.30292;-0.284236;-6.98497
28.2;53.7406;2.29516;-0.254929;-7.01194
28.3;53.921;2.2874;-0.22562;-7.03598
28.4;54.1012;2.27964;-0.196317;-7.0571
28.5;54.2813;2.27189;-0.167029;-7.07528
28.6;54.4611;2.26415;-0.137762;-7.09053
28.7;54.6407;2.25642;-0.108527;-7.10286
28.8;54.8199;2.2487;-0.0793294;-7.11227
28.9;54.9988;2.241;-0.0501786;-7.11876
29;55.1772;2.23331;-0.0210822;-7.12233
29.1;55.3552;2.22564;0.00795181;-7.123
29.2;55.5326;2.21799;0.0369155;-7.12077
29.3;55.7094;2.21036;0.0658011;-7.11565
29.4;55.8857;2.20276;0.0946007;-7.10765
29.5;56.0612;2.19519;0.123306;-7.09676
29.6;56.2361;2.18765;0.151911;-7.08302
29.7;56.4102;2.18013;0.180406;-7.06641
29.8;56.5835;2.17265;0.208784;-7.04697
29.9;56.7559;2.16521;0.237038;-7.02469
30;56.9275;2.1578;0.265159;-6.99959
30.1;57.0981;2.15043;0.293142;-6.97169
30.2;57.2677;2.1431;0.320977;-6.941
30.3;57.4362;2.13582;0.348658;-6.90753
30.4;57.6037;2.12858;0.376177;-6.8713
30.5;57.7701;2.12138;0.403527;-6.83233
30.6;57.9353;2.11424;0.430702;-6.79063
30.7;58.0993;2.10715;0.457693;-6.74622
30.8;58.262;2.1001;0.484494;-6.69912
30.9;58.4235;2.09312;0.511097;-6.64935
31;58.5836;2.08618;0.537497;-6.59693
31.1;58.7423;2.07931;0.563685;-6.54189
31.2;58.8996;2.0725;0.589656;-6.48423
31.3;59.0555;2.06574;0.615402;-6.42399
31.4;59.2098;2.05905;0.640917;-6.36118
31.5;59.3626;2.05243;0.666194;-6.29584
31.6;59.5139;2.04587;0.691228;-6.22798
31.7;59.6635;2.03938;0.71601;-6.15763
31.8;59.8115;2.03296;0.740536;-6.08481
31.9;59.9578;2.02661;0.7648;-6.00955
32;60.1023;2.02033;0.788794;-5.93188
32.1;60.2451;2.01413;0.812513;-5.85183
32.2;60.3861;2.008;0.83595;-5.76941
32.3;60.5253;2.00196;0.859101;-5.68467
32.4;60.6626;1.99599;0.88196;-5.59763
32.5;60.798;1.9901;0.90452;-5.50831
32.6;60.9315;1.98429;0.926776;-5.41675
32.7;61.063;1.97857;0.948723;-5.32299
32.8;61.1925;1.97293;0.970356;-5.22704
32.9;61.3199;1.96738;0.991668;-5.12895
33;61.4454;1.96191;1.01266;-5.02874
33.1;61.5687;1.95654;1.03331;-4.92645
33.2;61.6899;1.95125;1.05363;-4.82211
33.3;61.8089;1.94606;1.07362;-4.71575
33.4;61.9258;1.94096;1.09325;-4.60742
33.5;62.0405;1.93595;1.11254;-4.49713
33.6;62.1529;1.93104;1.13148;-4.38494
33.7;62.2631;1.92622;1.15005;-4.27087
33.8;62.3711;1.9215;1.16827;-4.15496
33.9;62.4767;1.91688;1.18611;-4.03725
34;62.5799;1.91236;1.20359;-3.91777
34.1;62.6809;1.90793;1.22069;-3.79656
34.2;62.7794;1.90361;1.23741;-3.67366
34.3;62.8756;1.8994;1.25375;-3.54911
34.4;62.9693;1.89528;1.2697;-3.42294
34.5;63.0606;1.89127;1.28527;-3.29519
34.6;63.1494;1.88737;1.30044;-3.16591
34.7;63.2358;1.88357;1.31521;-3.03513
34.8;63.3196;1.87987;1.32959;-2.9029
34.9;63.401;1.87629;1.34356;-2.76925
35;63.4798;1.87281;1.35713;-2.63421
35.1;63.5561;1.86944;1.37028;-2.49785
35.2;63.6298;1.86618;1.38303;-2.36018
35.3;63.701;1.86304;1.39537;-2.22127
35.4;63.7695;1.86;1.40728;-2.08114
35.5;63.8355;1.85707;1.41878;-1.93984
35.6;63.8988;1.85426;1.42986;-1.79741
35.7;63.9595;1.85155;1.44052;-1.65389
35.8;64.0176;1.84897;1.45075;-1.50933
35.9;64.0731;1.84649;1.46055;-1.36376
36;64.1258;1.84413;1.46993;-1.21724
36.1;64.1759;1.84188;1.47888;-1.0698
36.2;64.2234;1.83975;1.48739;-0.921488
36.3;64.2682;1.83773;1.49548;-0.772344
36.4;64.3102;1.83583;1.50313;-0.622414
36.5;64.3496;1.83404;1.51034;-0.471741
36.6;64.3863;1.83237;1.51712;-0.320368
36.7;64.4204;1.83081;1.52346;-0.168338
36.8;64.4517;1.82937;1.52937;-0.0156959
36.9;64.4803;1.82805;1.53483;0.137515
37;64.5061;1.82684;1.53986;0.291251
37.1;64.5293;1.82575;1.54445;0.445468
37.2;64.5498;1.82478;1.5486;0.600121
37.3;64.5676;1.82392;1.55231;0.755169
37.4;64.5827;1.82318;1.55558;0.910565
37.5;64.5951;1.82255;1.55841;1.06627
37.6;64.6047;1.82204;1.5608;1.22223
37.7;64.6117;1.82165;1.56276;1.37841
37.8;64.616;1.82137;1.56427;1.53476
37.9;64.6176;1.82121;1.56535;1.69125
38;64.6165;1.82116;1.56599;1.84782
38.1;64.6128;1.82123;1.5662;2.00443
38.2;64.6064;1.82142;1.56597;2.16104
38.3;64.5973;1.82171;1.5653;2.31761
38.4;64.5856;1.82213;1.56421;2.47409
38.5;64.5712;1.82265;1.56268;2.63044
38.6;64.5542;1.82329;1.56072;2.78662
38.7;64.5346;1.82405;1.55834;2.94257
38.8;64.5124;1.82491;1.55553;3.09827
38.9;64.4876;1.82589;1.55229;3.25367
39;64.4602;1.82698;1.54863;3.40872
39.1;64.4302;1.82818;1.54455;3.56338
39.2;64.3977;1.82949;1.54005;3.71762
39.3;64.3627;1.83091;1.53513;3.87138
39.4;64.3251;1.83243;1.5298;4.02463
39.5;64.285;1.83407;1.52405;4.17733
39.6;64.2425;1.83582;1.5179;4.32944
39.7;64.1974;1.83767;1.51134;4.48091
39.8;64.1499;1.83962;1.50438;4.6317
39.9;64.1;1.84169;1.49701;4.78178
40;64.0477;1.84386;1.48925;4.9311
40.1;63.9929;1.84613;1.48109;5.07962
40.2;63.9358;1.8485;1.47255;5.22731
40.3;63.8763;1.85098;1.46361;5.37413
40.4;63.8145;1.85355;1.45429;5.52003
40.5;63.7504;1.85623;1.44458;5.66498
40.6;63.684;1.85901;1.4345;5.80894
40.7;63.6154;1.86188;1.42404;5.95188
40.8;63.5445;1.86485;1.41322;6.09375
40.9;63.4714;1.86792;1.40202;6.23452
41;63.3961;1.87108;1.39047;6.37415
41.1;63.3187;1.87434;1.37855;6.51261
41.2;63.2391;1.87768;1.36628;6.64986
41.3;63.1574;1.88113;1.35366;6.78587
41.4;63.0736;1.88466;1.3407;6.9206
41.5;62.9878;1.88828;1.32739;7.05401
41.6;62.9;1.89198;1.31374;7.18608
41.7;62.8102;1.89578;1.29977;7.31676
41.8;62.7184;1.89966;1.28546;7.44603
41.9;62.6246;1.90362;1.27083;7.57386
42;62.529;1.90767;1.25589;7.7002
42.1;62.4315;1.9118;1.24063;7.82504
42.2;62.3321;1.916;1.22506;7.94834
42.3;62.231;1.92029;1.20919;8.07006
42.4;62.1281;1.92466;1.19302;8.19018
42.5;62.0234;1.9291;1.17656;8.30867
42.6;61.917;1.93361;1.15981;8.4255
42.7;61.8089;1.9382;1.14278;8.54064
42.8;61.6992;1.94286;1.12547;8.65406
42.9;61.5879;1.9476;1.10789;8.76574
43;61.475;1.9524;1.09004;8.87565
43.1;61.3606;1.95726;1.07193;8.98376
43.2;61.2447;1.9622;1.05357;9.09004
43.3;61.1273;1.9672;1.03496;9.19448
43.4;61.0084;1.97226;1.0161;9.29705
43.5;60.8882;1.97738;0.997006;9.39771
43.6;60.7666;1.98256;0.977681;9.49646
43.7;60.6437;1.9878;0.95813;9.59326
43.8;60.5195;1.9931;0.938359;9.6881
43.9;60.3941;1.99845;0.918374;9.78094
44;60.2674;2.00385;0.898182;9.87178
44.1;60.1396;2.00931;0.877787;9.96059
44.2;60.0106;2.01482;0.857197;10.0474
44.3;59.8806;2.02037;0.836417;10.132
44.4;59.7495;2.02597;0.815454;10.2147
44.5;59.6173;2.03162;0.794313;10.2952
44.6;59.4842;2.03731;0.773002;10.3735
44.7;59.3502;2.04304;0.751527;10.4498
44.8;59.2152;2.04881;0.729893;10.5239
44.9;59.0794;2.05463;0.708108;10.5958
45;58.9428;2.06047;0.686177;10.6655
45.1;58.8054;2.06635;0.664107;10.733
45.2;58.6672;2.07227;0.641905;10.7983
45.3;58.5284;2.07822;0.619577;10.8614
45.4;58.3889;2.08419;0.597129;10.9223
45.5;58.2487;2.0902;0.574569;10.9809
45.6;58.108;2.09623;0.551901;11.0372
45.7;57.9668;2.10229;0.529134;11.0913
45.8;57.825;2.10837;0.506274;11.143
45.9;57.6828;2.11447;0.483326;11.1925
46;57.5402;2.12058;0.460299;11.2397
46.1;57.3972;2.12672;0.437197;11.2846
46.2;57.2538;2.13287;0.414029;11.3272
46.3;57.1102;2.13904;0.3908;11.3674
46.4;56.9663;2.14522;0.367517;11.4054
46.5;56.8222;2.15141;0.344186;11.441
46.6;56.6779;2.15761;0.320815;11.4742
46.7;56.5335;2.16382;0.29741;11.5052
46.8;56.3889;2.17003;0.273977;11.5337
46.9;56.2444;2.17624;0.250523;11.56
47;56.0998;2.18246;0.227055;11.5839
47.1;55.9552;2.18868;0.203578;11.6054
47.2;55.8107;2.19489;0.1801;11.6246
47.3;55.6663;2.20111;0.156628;11.6415
47.4;55.5221;2.20732;0.133166;11.656
47.5;55.378;2.21352;0.109723;11.6681
47.6;55.2342;2.21971;0.0863048;11.6779
47.7;55.0907;2.22589;0.0629172;11.6854
47.8;54.9474;2.23206;0.039567;11.6905
47.9;54.8045;2.23822;0.0162605;11.6933
48;54.6619;2.24437;-0.00699575;11.6938
48.1;54.5198;2.25049;-0.0301956;11.692
48.2;54.3782;2.2566;-0.0533326;11.6878
48.3;54.237;2.26269;-0.0764006;11.6813
48.4;54.0964;2.26875;-0.0993932;11.6725
48.5;53.9563;2.2748;-0.122304;11.6615
48.6;53.8169;2.28081;-0.145128;11.6481
48.7;53.6781;2.28681;-0.167858;11.6325
48.8;53.54;2.29277;-0.190488;11.6146
48.9;53.4026;2.2987;-0.213012;11.5944
49;53.2659;2.3046;-0.235424;11.572
49.1;53.1301;2.31047;-0.257718;11.5473
49.2;52.9951;2.31631;-0.279888;11.5205
49.3;52.861;2.32211;-0.301929;11.4914
49.4;52.7277;2.32787;-0.323834;11.4601
49.5;52.5954;2.33359;-0.345598;11.4266
49.6;52.4641;2.33927;-0.367216;11.391
49.7;52.3337;2.34491;-0.38868;11.3532
49.8;52.2044;2.35051;-0.409987;11.3133
49.9;52.0762;2.35606;-0.43113;11.2713
50;51.9491;2.36156;-0.452103;11.2271
50.1;51.8231;2.36702;-0.472902;11.1809
50.2;51.6983;2.37243;-0.493521;11.1325
50.3;51.5747;2.37779;-0.513955;11.0822
50.4;51.4523;2.38309;-0.534198;11.0298
50.5;51.3312;2.38835;-0.554246;10.9754
50.6;51.2113;2.39354;-0.574093;10.919
50.7;51.0928;2.39868;-0.593734;10.8606
50.8;50.9757;2.40377;-0.613164;10.8002
50.9;50.8599;2.4088;-0.632378;10.738
51;50.7456;2.41376;-0.651372;10.6738
51.1;50.6327;2.41867;-0.670141;10.6077
51.2;50.5212;2.42351;-0.68868;10.5398
51.3;50.4113;2.42829;-0.706985;10.47
51.4;50.3029;2.43301;-0.72505;10.3984
51.5;50.196;2.43766;-0.742872;10.325
51.6;50.0907;2.44224;-0.760446;10.2499
51.7;49.987;2.44675;-0.777767;10.173
51.8;49.8849;2.4512;-0.794833;10.0943
51.9;49.7845;2.45557;-0.811638;10.014
52;49.6858;2.45988;-0.828178;9.93204
52.1;49.5887;2.46411;-0.84445;9.84842
52.2;49.4934;2.46827;-0.860449;9.76318
52.3;49.3998;2.47235;-0.876172;9.67635
52.4;49.308;2.47636;-0.891615;9.58797
52.5;49.218;2.4803;-0.906775;9.49805
52.6;49.1298;2.48415;-0.921647;9.40664
52.7;49.0434;2.48793;-0.936229;9.31375
52.8;48.9588;2.49163;-0.950517;9.21942
52.9;48.8762;2.49525;-0.964508;9.12367
53;48.7954;2.49879;-0.978198;9.02654
53.1;48.7165;2.50225;-0.991585;8.92805
53.2;48.6395;2.50563;-1.00467;8.82824
53.3;48.5645;2.50892;-1.01744;8.72714
